# T(K) F_LW(W m-2) F_atm(W m-2)
200.0 42.077057 -59.717503
250.0 116.364944 14.576096
300.0 236.24365 134.45592
350.0 390.91324 289.1425
400.0 583.90063 482.15295
450.0 820.31024 718.58344
500.0 1093.5494 991.83984
550.0 1409.2932 1307.5991
600.0 1776.0896 1674.4102
650.0 2207.0168 2105.3503
700.0 2711.9868 2610.3308
750.0 3307.2444 3205.598
800.0 4107.7417 4006.1045
850.0 4968.7036 4867.074
900.0 5984.3076 5882.685
950.0 7183.45 7081.834
1000.0 8593.23 8491.621
1050.0 10216.989 10115.379
1100.0 12152.017 12050.398
1150.0 14391.275 14289.646
1200.0 16971.146 16869.508
1250.0 19966.062 19864.412
1300.0 23443.16 23341.504
1350.0 27227.562 27125.904
1400.0 31574.275 31472.62
1450.0 36585.54 36483.887
1500.0 41988.438 41886.79
1550.0 48230.277 48128.637
1600.0 55316.61 55214.973
1650.0 63552.707 63451.08
1700.0 72564.37 72462.74
1750.0 83291.734 83190.12
1800.0 95690.91 95589.29
1850.0 109873.37 109771.75
1900.0 125903.47 125801.84
1950.0 144681.08 144579.44
2000.0 165829.5 165727.86
2050.0 189177.61 189075.95
2100.0 215835.9 215734.25
2150.0 245772.1 245670.44
2200.0 278476.25 278374.6
2250.0 314138.38 314036.72
2300.0 354784.78 354683.12
2350.0 400719.53 400617.9
2400.0 451386.38 451284.75
2450.0 506700.44 506598.8
2500.0 569311.8 569210.25
2550.0 636033.06 635931.5
2600.0 713172.0 713070.44
2650.0 794280.25 794178.7
2700.0 888744.06 888642.5
2750.0 987635.2 987533.6
2800.0 1102413.9 1102312.2
2850.0 1222064.6 1221963.0
2900.0 1357809.1 1357707.5
2950.0 1499910.0 1499808.4
3000.0 1657065.9 1656964.2
