# T(K) F_LW(W m-2) F_atm(W m-2)
200.0 59.80284 -559.7797
250.0 109.26161 -510.4761
300.0 197.06458 -423.33545
350.0 341.5148 -279.4766
400.0 583.73865 -37.65576
450.0 965.16064 343.2503
500.0 1507.4757 885.07416
550.0 2239.0964 1616.3262
600.0 3187.1594 2564.1138
650.0 4395.4307 3772.1472
700.0 5880.8037 5257.3115
750.0 7668.452 7044.7866
800.0 9812.523 9188.717
850.0 12341.983 11718.067
900.0 15274.869 14650.872
950.0 18727.768 18103.709
1000.0 22695.781 22071.676
1050.0 27300.77 26676.34
1100.0 32410.107 31785.135
1150.0 37930.617 37305.12
1200.0 43922.277 43296.33
1250.0 50415.17 49788.83
1300.0 57555.574 56928.965
1350.0 65499.01 64872.277
1400.0 74438.4 73811.625
1450.0 84620.55 83993.79
1500.0 96179.664 95552.97
1550.0 109389.664 108763.05
1600.0 124469.59 123843.06
1650.0 141580.0 140953.58
1700.0 160884.34 160258.02
1750.0 183207.48 182581.28
1800.0 208806.61 208180.25
1850.0 237274.58 236647.72
1900.0 267450.8 266823.34
1950.0 300864.44 300236.4
2000.0 336556.94 335928.4
2050.0 374066.84 373437.94
2100.0 416039.03 415409.94
2150.0 461446.03 460816.84
2200.0 510572.72 509943.53
2250.0 566582.5 565953.4
2300.0 626519.56 625890.56
2350.0 693938.6 693309.75
2400.0 767735.7 767106.94
2450.0 848242.0 847613.44
2500.0 938278.1 937649.7
2550.0 1032860.25 1032231.94
2600.0 1140965.5 1140337.2
2650.0 1253134.4 1252506.4
2700.0 1381235.4 1380607.5
2750.0 1512739.9 1512112.1
2800.0 1662804.6 1662177.0
2850.0 1817310.9 1816683.4
2900.0 1989941.9 1989314.4
2950.0 2168574.5 2167947.0
3000.0 2363250.5 2362623.0
