# T(K) F_LW(W m-2) F_atm(W m-2)
200.0 79.336006 -18.921234
250.0 194.64992 96.36627
300.0 402.0941 303.76636
350.0 733.0275 634.6729
400.0 1221.7247 1123.3542
450.0 1903.1147 1804.713
500.0 2812.7092 2714.2874
550.0 4010.4053 3911.9714
600.0 5546.088 5447.6445
650.0 7503.9746 7405.5195
700.0 9927.168 9828.701
750.0 12895.795 12797.318
800.0 16544.807 16446.324
850.0 20945.863 20847.373
900.0 26116.348 26017.852
950.0 32335.586 32237.086
1000.0 39557.062 39458.555
1050.0 47986.086 47887.574
1100.0 57758.35 57659.832
1150.0 68982.625 68884.1
1200.0 81752.805 81654.27
1250.0 96189.73 96091.19
1300.0 112576.89 112478.34
1350.0 131034.71 130936.164
1400.0 151708.12 151609.56
1450.0 174997.02 174898.45
1500.0 200809.9 200711.34
1550.0 229450.05 229351.48
1600.0 261160.81 261062.25
1650.0 296014.72 295916.16
1700.0 333999.12 333900.56
1750.0 376488.7 376390.12
1800.0 422742.2 422643.62
1850.0 472839.88 472741.3
1900.0 526705.4 526606.8
1950.0 587056.9 586958.25
2000.0 652074.6 651976.0
2050.0 720912.1 720813.44
2100.0 796552.0 796453.3
2150.0 877715.4 877616.7
2200.0 963667.9 963569.2
2250.0 1058882.4 1058783.6
2300.0 1157854.6 1157755.9
2350.0 1266689.8 1266591.0
2400.0 1382641.2 1382542.5
2450.0 1505781.0 1505682.2
2500.0 1638663.4 1638564.6
2550.0 1775765.0 1775666.2
2600.0 1928305.0 1928206.2
2650.0 2084003.8 2083905.0
2700.0 2257315.5 2257216.8
2750.0 2432920.8 2432822.0
2800.0 2629388.0 2629289.2
2850.0 2829085.8 2828987.0
2900.0 3046926.5 3046827.8
2950.0 3270263.0 3270164.2
3000.0 3509810.5 3509711.8
