# T(K) F_LW(W m-2) F_atm(W m-2)
200.0 14.991359 -621.85925
250.0 42.460976 -594.421
300.0 88.77995 -548.15906
350.0 143.21782 -493.72223
400.0 219.5997 -417.3325
450.0 324.6478 -312.27356
500.0 461.90997 -174.99689
550.0 635.1316 -1.7532349
600.0 847.59796 210.74945
650.0 1102.8367 466.04047
700.0 1401.4354 764.7034
750.0 1745.4598 1108.8069
800.0 2139.5664 1503.0117
850.0 2580.0781 1943.6309
900.0 3092.3154 2455.9749
950.0 3675.2212 3038.9897
1000.0 4344.911 3708.7942
1050.0 5128.258 4492.156
1100.0 6031.854 5395.6255
1150.0 7013.2725 6376.874
1200.0 8145.521 7508.967
1250.0 9518.278 8881.602
1300.0 11065.255 10428.52
1350.0 12954.373 12317.631
1400.0 15113.268 14476.547
1450.0 17675.326 17038.648
1500.0 20772.645 20136.035
1550.0 24424.719 23788.191
1600.0 28703.197 28066.754
1650.0 33681.895 33045.543
1700.0 39421.266 38785.008
1750.0 46355.484 45719.33
1800.0 54292.645 53656.535
1850.0 63380.18 62744.016
1900.0 73621.38 72985.1
1950.0 85869.04 85232.625
2000.0 99969.234 99332.7
2050.0 115421.18 114784.57
2100.0 133789.1 133152.48
2150.0 154598.39 153961.78
2200.0 177965.55 177328.97
2250.0 205717.48 205080.97
2300.0 235948.98 235312.56
2350.0 271005.62 270369.28
2400.0 310735.28 310099.06
2450.0 354230.2 353594.1
2500.0 404236.5 403600.5
2550.0 457395.22 456759.3
2600.0 519600.4 518964.62
2650.0 584287.5 583651.8
2700.0 658144.94 657509.3
2750.0 736381.5 735745.94
2800.0 827864.94 827229.4
2850.0 921910.6 921275.06
2900.0 1029695.5 1029059.9
2950.0 1141775.4 1141139.6
3000.0 1266757.0 1266121.2
