# T(K) F_LW(W m-2) F_atm(W m-2)
200.0 80.046585 -18.128426
250.0 196.35558 98.17079
300.0 405.40582 307.1938
350.0 739.7489 641.5168
400.0 1235.2415 1136.9984
450.0 1929.9219 1831.6566
500.0 2860.3616 2762.077
550.0 4088.452 3990.1558
600.0 5664.89 5566.5864
650.0 7680.153 7581.84
700.0 10180.406 10082.084
750.0 13243.953 13145.623
800.0 17007.11 16908.773
850.0 21544.236 21445.895
900.0 26871.129 26772.783
950.0 33277.91 33179.56
1000.0 40711.242 40612.887
1050.0 49390.434 49292.074
1100.0 59447.465 59349.098
1150.0 70992.836 70894.47
1200.0 84123.95 84025.58
1250.0 98967.79 98869.41
1300.0 115816.086 115717.7
1350.0 134798.1 134699.7
1400.0 156064.22 155965.83
1450.0 180026.14 179927.73
1500.0 206593.25 206494.84
1550.0 236071.3 235972.89
1600.0 268718.56 268620.16
1650.0 304616.6 304518.2
1700.0 343746.53 343648.12
1750.0 387519.34 387420.94
1800.0 435221.9 435123.5
1850.0 486883.4 486785.0
1900.0 542386.2 542287.8
1950.0 604387.8 604289.44
2000.0 671097.06 670998.6
2050.0 741835.6 741737.2
2100.0 819514.56 819416.1
2150.0 903036.44 902938.0
2200.0 991434.3 991335.9
2250.0 1089271.8 1089173.2
2300.0 1191270.6 1191172.1
2350.0 1303085.5 1302987.0
2400.0 1422454.4 1422355.9
2450.0 1548966.2 1548867.8
2500.0 1685630.6 1685532.1
2550.0 1826420.5 1826322.0
2600.0 1983148.8 1983050.2
2650.0 2142805.0 2142706.5
2700.0 2320612.0 2320513.5
2750.0 2500562.5 2500464.0
2800.0 2701866.8 2701768.2
2850.0 2906204.5 2906106.0
2900.0 3129234.5 3129136.0
2950.0 3357373.8 3357275.2
3000.0 3602475.8 3602377.2
