# T(K) F_LW(W m-2) F_atm(W m-2)
200.0 10.363919 -626.847
250.0 16.828974 -620.6137
300.0 19.009975 -618.5155
350.0 26.258068 -611.274
400.0 39.194958 -598.33673
450.0 60.750217 -576.7777
500.0 92.74969 -544.77167
550.0 139.15941 -498.35376
600.0 203.61003 -433.89276
650.0 289.42224 -348.06854
700.0 399.25137 -238.22629
750.0 535.8419 -101.62079
800.0 701.2565 63.81183
850.0 896.3373 258.91205
900.0 1120.9958 483.58978
950.0 1379.3528 741.9677
1000.0 1674.0304 1036.6699
1050.0 2007.8969 1370.5195
1100.0 2386.678 1749.2498
1150.0 2814.0186 2176.5522
1200.0 3296.6016 2659.1096
1250.0 3848.775 3211.2654
1300.0 4501.2695 3863.7537
1350.0 5258.5645 4621.0522
1400.0 6206.8833 5569.38
1450.0 7334.474 6696.9834
1500.0 8722.686 8085.2134
1550.0 10438.021 9800.57
1600.0 12550.836 11913.405
1650.0 15128.962 14491.553
1700.0 18243.07 17605.684
1750.0 22170.943 21533.586
1800.0 26955.725 26318.367
1850.0 32550.951 31913.557
1900.0 39142.7 38505.27
1950.0 47407.418 46769.96
2000.0 57036.914 56399.434
2050.0 67928.14 67290.65
2100.0 81329.74 80692.25
2150.0 96579.055 95941.57
2200.0 113631.83 112994.36
2250.0 134352.17 133714.72
2300.0 156991.28 156353.86
2350.0 183345.33 182707.95
2400.0 213238.95 212601.61
2450.0 246147.06 245509.77
2500.0 284648.0 284010.72
2550.0 325380.6 324743.34
2600.0 374230.7 373593.47
2650.0 424837.72 424200.53
2700.0 486015.62 485378.47
2750.0 549103.75 548466.6
2800.0 624911.6 624274.5
2850.0 703085.44 702448.25
2900.0 794552.25 793915.06
2950.0 889829.56 889192.3
3000.0 997212.75 996575.5
