# T(K) F_LW(W m-2) F_atm(W m-2)
200.0 60.030273 -560.4391
250.0 79.432076 -547.26324
300.0 82.602455 -549.75055
350.0 88.81716 -546.5376
400.0 83.41649 -553.2739
450.0 88.82932 -548.2842
500.0 104.708015 -532.69604
550.0 132.33072 -505.236
600.0 172.8312 -464.8288
650.0 228.63797 -409.06033
700.0 302.76245 -334.92957
750.0 399.9752 -237.68234
800.0 525.37695 -112.22467
850.0 686.16565 48.641846
900.0 891.10815 253.68152
950.0 1153.0405 515.72565
1000.0 1485.5785 848.38824
1050.0 1907.8975 1270.5857
1100.0 2439.1663 1801.4448
1150.0 3094.201 2456.0063
1200.0 3891.7996 3253.1382
1250.0 4859.0054 4219.91
1300.0 6025.6865 5386.2812
1350.0 7429.466 6789.926
1400.0 9120.612 8481.033
1450.0 11159.831 10520.296
1500.0 13615.6045 12976.169
1550.0 16583.389 15944.092
1600.0 20140.158 19501.01
1650.0 24395.096 23756.104
1700.0 29450.729 28811.906
1750.0 35661.94 35023.31
1800.0 43098.047 42459.324
1850.0 51712.418 51073.18
1900.0 61308.766 60668.836
1950.0 72488.82 71848.19
2000.0 84804.59 84163.33
2050.0 98098.695 97456.984
2100.0 113506.99 112865.04
2150.0 130694.414 130052.35
2200.0 149561.56 148919.48
2250.0 172057.84 171415.81
2300.0 196548.75 195906.83
2350.0 225015.05 224373.3
2400.0 257168.52 256526.95
2450.0 292938.94 292297.53
2500.0 334468.84 333827.62
2550.0 379195.56 378554.53
2600.0 432291.0 431650.2
2650.0 488170.44 487529.84
2700.0 554442.2 553801.8
2750.0 623269.06 622628.9
2800.0 704581.5 703941.5
2850.0 789756.8 789117.0
2900.0 888326.8 887687.1
2950.0 991550.7 990911.06
3000.0 1107033.5 1106393.9
