# T(K) F_LW(W m-2) F_atm(W m-2)
200.0 79.336006 -534.77185
250.0 194.64992 -419.6229
300.0 402.0941 -212.45422
350.0 733.0275 118.31128
400.0 1221.7247 606.90924
450.0 1903.1147 1288.104
500.0 2812.7092 2197.573
550.0 4010.4053 3395.1934
600.0 5546.088 4930.8174
650.0 7503.9746 6888.6294
700.0 9927.168 9311.748
750.0 12895.795 12280.317
800.0 16544.807 15929.283
850.0 20945.863 20330.3
900.0 26116.348 25500.746
950.0 32335.586 31719.951
1000.0 39557.062 38941.402
1050.0 47986.086 47370.39
1100.0 57758.35 57142.61
1150.0 68982.625 68366.83
1200.0 81752.805 81136.96
1250.0 96189.73 95573.836
1300.0 112576.89 111960.97
1350.0 131034.71 130418.76
1400.0 151708.12 151092.17
1450.0 174997.02 174381.06
1500.0 200809.9 200193.95
1550.0 229450.05 228834.1
1600.0 261160.81 260544.88
1650.0 296014.72 295398.78
1700.0 333999.12 333383.2
1750.0 376488.7 375872.78
1800.0 422742.2 422126.25
1850.0 472839.88 472223.8
1900.0 526705.4 526089.1
1950.0 587056.9 586440.44
2000.0 652074.6 651458.0
2050.0 720912.1 720295.4
2100.0 796552.0 795935.1
2150.0 877715.4 877098.44
2200.0 963667.9 963050.94
2250.0 1058882.4 1058265.4
2300.0 1157854.6 1157237.6
2350.0 1266689.8 1266072.8
2400.0 1382641.2 1382024.2
2450.0 1505781.0 1505164.0
2500.0 1638663.4 1638046.5
2550.0 1775765.0 1775148.1
2600.0 1928305.0 1927688.1
2650.0 2084003.8 2083386.9
2700.0 2257315.5 2256698.8
2750.0 2432920.8 2432304.0
2800.0 2629388.0 2628771.2
2850.0 2829085.8 2828469.0
2900.0 3046926.5 3046309.8
2950.0 3270263.0 3269646.2
3000.0 3509810.5 3509193.8
