# T(K) F_LW(W m-2) F_atm(W m-2)
200.0 60.030273 -39.244812
250.0 79.432076 -20.839172
300.0 82.602455 -18.57402
350.0 88.81716 -12.839592
400.0 83.41649 -18.453964
450.0 88.82932 -13.108826
500.0 104.708015 2.7233734
550.0 132.33072 30.320053
600.0 172.8312 70.80562
650.0 228.63797 126.60625
700.0 302.76245 200.73175
750.0 399.9752 297.94998
800.0 525.37695 423.36072
850.0 686.16565 584.16187
900.0 891.10815 789.1199
950.0 1153.0405 1051.0702
1000.0 1485.5785 1383.628
1050.0 1907.8975 1805.9276
1100.0 2439.1663 2337.1309
1150.0 3094.201 2992.0898
1200.0 3891.7996 3789.6138
1250.0 4859.0054 4756.75
1300.0 6025.6865 5923.382
1350.0 7429.466 7327.139
1400.0 9120.612 9018.279
1450.0 11159.831 11057.506
1500.0 13615.6045 13513.295
1550.0 16583.389 16481.102
1600.0 20140.158 20037.895
1650.0 24395.096 24292.857
1700.0 29450.729 29348.518
1750.0 35661.94 35559.758
1800.0 43098.047 42995.85
1850.0 51712.418 51610.137
1900.0 61308.766 61206.375
1950.0 72488.82 72386.32
2000.0 84803.125 84700.52
2050.0 98098.695 97996.02
2100.0 113506.99 113404.28
2150.0 130694.414 130591.69
2200.0 149560.92 149458.19
2250.0 172057.84 171955.11
2300.0 196548.67 196445.95
2350.0 225014.77 224912.08
2400.0 257168.05 257065.39
2450.0 292938.28 292835.66
2500.0 334468.84 334366.25
2550.0 379195.56 379093.0
2600.0 432291.0 432188.47
2650.0 488170.44 488067.94
2700.0 554442.2 554339.75
2750.0 623269.06 623166.7
2800.0 704581.5 704479.1
2850.0 789753.25 789650.9
2900.0 888326.8 888224.5
2950.0 991550.7 991448.4
3000.0 1107033.5 1106931.1
