# T(K) F_LW(W m-2) F_atm(W m-2)
200.0 60.030273 -39.244812
250.0 81.47199 -18.48024
300.0 115.38662 15.278534
350.0 173.18324 72.96106
400.0 269.778 169.48672
450.0 420.07874 319.71432
500.0 628.01855 527.5987
550.0 913.04016 812.5828
600.0 1304.3259 1203.8418
650.0 1834.1495 1733.6448
700.0 2528.9773 2428.4573
750.0 3410.6797 3310.1487
800.0 4504.5186 4403.98
850.0 5833.2114 5732.6685
900.0 7413.6436 7313.0996
950.0 9287.793 9187.25
1000.0 11469.941 11369.402
1050.0 13998.316 13897.732
1100.0 16792.816 16692.139
1150.0 19807.1 19706.32
1200.0 23087.865 22986.99
1250.0 26675.59 26574.627
1300.0 30631.088 30530.064
1350.0 35045.195 34944.145
1400.0 40027.76 39926.703
1450.0 45711.414 45610.363
1500.0 52264.387 52163.355
1550.0 59865.492 59764.484
1600.0 68675.63 68574.66
1650.0 78906.97 78806.016
1700.0 90687.414 90586.49
1750.0 104681.57 104580.68
1800.0 121023.914 120923.0
1850.0 139335.36 139234.33
1900.0 159109.19 159008.02
1950.0 181558.31 181457.0
2000.0 205732.44 205631.02
2050.0 231548.53 231447.03
2100.0 260906.72 260805.17
2150.0 292941.9 292840.34
2200.0 327662.9 327561.34
2250.0 368050.53 367948.97
2300.0 411482.1 411380.56
2350.0 460980.1 460878.6
2400.0 515897.12 515795.66
2450.0 576129.7 576028.3
2500.0 644606.5 644505.1
2550.0 717377.0 717275.7
2600.0 801652.2 801550.9
2650.0 889487.3 889386.06
2700.0 991530.7 991429.5
2750.0 1097060.0 1096958.8
2800.0 1219312.9 1219211.6
2850.0 1345577.8 1345476.5
2900.0 1488843.8 1488742.6
2950.0 1638015.6 1637914.5
3000.0 1802734.6 1802633.5
