# T(K) F_LW(W m-2) F_atm(W m-2)
200.0 80.82009 -17.273026
250.0 197.65033 99.54823
300.0 408.05563 309.93192
350.0 746.2878 648.15094
400.0 1249.8005 1151.6556
450.0 1958.446 1860.2852
500.0 2908.3433 2810.1675
550.0 4163.9746 4065.7886
600.0 5778.386 5680.1924
650.0 7846.7207 7748.5176
700.0 10416.491 10318.277
750.0 13564.687 13466.465
800.0 17431.838 17333.611
850.0 22093.87 21995.637
900.0 27570.139 27471.902
950.0 34153.53 34055.29
1000.0 41792.855 41694.61
1050.0 50708.445 50610.195
1100.0 61039.555 60941.297
1150.0 72901.06 72802.805
1200.0 86399.82 86301.555
1250.0 101667.83 101569.555
1300.0 119007.6 118909.32
1350.0 138553.1 138454.8
1400.0 160462.06 160363.77
1450.0 185162.8 185064.5
1500.0 212568.6 212470.3
1550.0 243083.14 242984.84
1600.0 276828.38 276730.1
1650.0 313958.8 313860.53
1700.0 354457.94 354359.66
1750.0 399782.25 399683.97
1800.0 449205.47 449107.16
1850.0 502753.62 502655.3
1900.0 560333.3 560235.0
1950.0 624801.7 624703.4
2000.0 693980.4 693882.06
2050.0 767375.4 767277.06
2100.0 847848.3 847749.94
2150.0 934432.0 934333.6
2200.0 1026002.75 1025904.4
2250.0 1127026.0 1126927.6
2300.0 1232493.1 1232394.8
2350.0 1348074.4 1347976.0
2400.0 1471514.5 1471416.1
2450.0 1602294.6 1602196.2
2500.0 1743504.8 1743406.4
2550.0 1889048.1 1888949.8
2600.0 2050831.1 2050732.8
2650.0 2215848.2 2215749.8
2700.0 2399016.0 2398917.5
2750.0 2584772.8 2584674.2
2800.0 2792433.8 2792335.2
2850.0 3003174.2 3003075.8
2900.0 3232790.5 3232692.0
2950.0 3467605.2 3467506.8
3000.0 3719731.2 3719632.8
