# T(K) F_LW(W m-2) F_atm(W m-2)
200.0 14.99135 -86.90473
250.0 42.460854 -59.44026
300.0 88.77899 -13.131241
350.0 143.21503 41.304626
400.0 219.58469 117.67555
450.0 324.62057 222.71317
500.0 461.89136 359.98627
550.0 635.14716 533.2456
600.0 847.6442 745.7484
650.0 1102.7898 1000.90234
700.0 1400.7993 1298.922
750.0 1741.3915 1639.5267
800.0 2127.9666 2026.1172
850.0 2563.114 2461.282
900.0 3053.3005 2951.4856
950.0 3612.1428 3510.3455
1000.0 4249.066 4147.2866
1050.0 5063.9604 4962.184
1100.0 5947.9224 5846.1255
1150.0 6966.4517 6864.628
1200.0 8099.051 7997.202
1250.0 9462.257 9360.389
1300.0 11008.647 10906.77
1350.0 12835.381 12733.502
1400.0 15000.928 14899.053
1450.0 17616.508 17514.64
1500.0 20706.584 20604.727
1550.0 24350.113 24248.27
1600.0 28620.252 28518.422
1650.0 33681.895 33580.08
1700.0 39421.266 39319.46
1750.0 46228.355 46126.57
1800.0 54153.75 54051.973
1850.0 63380.18 63278.39
1900.0 73621.38 73519.58
1950.0 85869.04 85767.22
2000.0 99969.234 99867.39
2050.0 115421.18 115319.33
2100.0 133789.1 133687.23
2150.0 154598.39 154496.53
2200.0 177965.55 177863.69
2250.0 205717.48 205615.64
2300.0 235948.98 235847.16
2350.0 271005.62 270903.8
2400.0 310735.28 310633.47
2450.0 354230.2 354128.4
2500.0 404236.5 404134.75
2550.0 457395.22 457293.47
2600.0 519600.4 519498.7
2650.0 584287.5 584185.8
2700.0 658144.94 658043.25
2750.0 736381.5 736279.8
2800.0 827864.94 827763.25
2850.0 921910.6 921808.94
2900.0 1029695.5 1029593.8
2950.0 1141775.4 1141673.6
3000.0 1266757.0 1266655.2
