# T(K) F_LW(W m-2) F_atm(W m-2)
200.0 81.8224 -529.76953
250.0 202.65897 -410.3947
300.0 282.4614 -354.63278
350.0 282.63565 -376.72894
400.0 282.6167 -385.7308
450.0 282.6723 -389.0288
500.0 282.72055 -388.97574
550.0 282.59702 -389.09406
600.0 282.65848 -389.02142
650.0 282.67856 -388.98785
700.0 282.7112 -388.93582
750.0 282.75055 -388.86932
800.0 282.5852 -388.9995
850.0 282.65512 -388.88605
900.0 282.59775 -388.8932
950.0 282.81946 -388.61548
1000.0 283.09058 -388.28345
1050.0 285.44797 -386.0815
1100.0 295.10574 -376.80292
1150.0 323.55997 -348.7547
1200.0 384.15594 -288.5128
1250.0 483.4468 -189.51907
1300.0 625.3911 -47.771545
1350.0 808.761 135.5119
1400.0 1042.012 368.72748
1450.0 1328.8704 655.5953
1500.0 1676.3209 1003.0849
1550.0 2086.3372 1413.1575
1600.0 2559.0667 1885.9495
1650.0 3093.5112 2420.4602
1700.0 3685.1074 3012.1284
1750.0 4332.9653 3660.0676
1800.0 5038.6787 4365.8403
1850.0 5807.037 5134.2104
1900.0 6636.122 5963.2646
1950.0 7537.4727 6864.553
2000.0 8516.045 7843.0464
2050.0 10145.355 9472.295
2100.0 11237.015 10563.932
2150.0 12520.4 11847.325
2200.0 13912.661 13239.619
2250.0 15454.208 14781.225
2300.0 17138.3 16465.4
2350.0 19006.004 18333.215
2400.0 21066.666 20393.994
2450.0 23152.098 22479.545
2500.0 25717.33 25044.896
2550.0 28537.506 27865.195
2600.0 31619.057 30946.871
2650.0 35196.86 34524.805
2700.0 39508.15 38836.22
2750.0 43998.016 43326.14
2800.0 49484.312 48812.42
2850.0 55566.227 54894.27
2900.0 62586.6 61914.54
2950.0 70143.26 69471.06
3000.0 78880.8 78208.46
