# T(K) F_LW(W m-2) F_atm(W m-2)
200.0 5.669808 -97.731544
250.0 5.670819 -97.621605
300.0 5.6824846 -97.665146
350.0 5.8156734 -97.56589
400.0 6.4852448 -96.89404
450.0 8.295242 -95.111115
500.0 12.016524 -91.43308
550.0 18.630875 -84.85177
600.0 29.75803 -73.74776
650.0 47.25358 -56.27545
700.0 73.244125 -30.307915
750.0 109.939926 6.368622
800.0 159.86215 56.274902
850.0 225.97629 122.3732
900.0 309.94897 206.32877
950.0 416.47913 312.84265
1000.0 547.14716 443.49548
1050.0 707.3705 603.6982
1100.0 900.8868 797.1863
1150.0 1131.3057 1027.5741
1200.0 1404.9387 1301.1772
1250.0 1728.956 1625.1667
1300.0 2109.944 2006.1294
1350.0 2556.8062 2452.9688
1400.0 3081.5112 2977.6536
1450.0 3699.3308 3595.455
1500.0 4429.599 4325.707
1550.0 5295.7983 5191.8916
1600.0 6326.1113 6222.1914
1650.0 7551.974 7448.042
1700.0 9004.439 8900.496
1750.0 10763.157 10659.205
1800.0 12888.679 12784.717
1850.0 15520.827 15416.857
1900.0 18568.35 18464.373
1950.0 22273.426 22169.441
2000.0 26725.496 26621.506
2050.0 31924.994 31820.994
2100.0 38358.227 38254.21
2150.0 45832.48 45728.45
2200.0 54407.56 54303.51
2250.0 65142.695 65038.63
2300.0 77100.78 76996.695
2350.0 91202.56 91098.46
2400.0 107646.45 107542.336
2450.0 126396.51 126292.37
2500.0 148261.4 148157.23
2550.0 172432.81 172328.62
2600.0 201101.3 200997.1
2650.0 232518.27 232414.05
2700.0 269535.06 269430.84
2750.0 308688.97 308584.72
2800.0 355485.62 355381.38
2850.0 404670.78 404566.5
2900.0 462523.25 462418.97
2950.0 523828.8 523724.5
3000.0 594031.75 593927.5
