# T(K) F_LW(W m-2) F_atm(W m-2)
200.0 6.080471 -94.65117
250.0 9.18932 -91.38725
300.0 19.886665 -80.70401
350.0 47.879284 -52.78629
400.0 109.71587 8.992294
450.0 226.54141 125.73869
500.0 412.09418 311.20978
550.0 680.7991 579.851
600.0 1050.3378 949.34106
650.0 1537.1582 1436.113
700.0 2154.045 2052.9521
750.0 2914.9233 2813.791
800.0 3837.7153 3736.5518
850.0 4944.422 4843.228
900.0 6256.2817 6155.058
950.0 7804.692 7703.4424
1000.0 9615.957 9514.686
1050.0 11844.519 11743.223
1100.0 14358.19 14256.865
1150.0 17252.682 17151.332
1200.0 20656.836 20555.465
1250.0 24644.082 24542.691
1300.0 29200.668 29099.262
1350.0 34629.598 34528.176
1400.0 40778.383 40676.953
1450.0 48220.906 48119.465
1500.0 56655.91 56554.46
1550.0 66479.75 66378.3
1600.0 77897.3 77795.836
1650.0 91107.664 91006.195
1700.0 106919.51 106818.04
1750.0 124711.59 124610.12
1800.0 145203.56 145102.08
1850.0 168521.42 168419.94
1900.0 193488.5 193387.0
1950.0 223866.81 223765.31
2000.0 258037.92 257936.42
2050.0 295824.62 295723.12
2100.0 338875.03 338773.53
2150.0 386743.53 386642.0
2200.0 438964.88 438863.34
2250.0 498801.4 498699.88
2300.0 563097.1 562995.6
2350.0 634839.7 634738.2
2400.0 710700.2 710598.6
2450.0 795400.1 795298.56
2500.0 889398.94 889297.4
2550.0 988736.4 988634.8
2600.0 1100510.1 1100408.5
2650.0 1216708.1 1216606.5
2700.0 1344059.6 1343958.0
2750.0 1478894.9 1478793.2
2800.0 1630662.4 1630560.8
2850.0 1787090.9 1786989.2
2900.0 1960824.8 1960723.1
2950.0 2141357.2 2141255.5
3000.0 2337799.8 2337698.0
