# T(K) F_LW(W m-2) F_atm(W m-2)
200.0 67.74703 -30.246696
250.0 179.56508 81.58241
300.0 386.60345 288.62497
350.0 722.57855 624.602
400.0 1222.4264 1124.4524
450.0 1925.3813 1827.4111
500.0 2873.7786 2775.8127
550.0 4130.145 4032.1836
600.0 5752.9175 5654.9595
650.0 7848.162 7750.208
700.0 10489.726 10391.775
750.0 13779.529 13681.58
800.0 17885.055 17787.11
850.0 22913.2 22815.256
900.0 28909.396 28811.455
950.0 36222.453 36124.51
1000.0 44806.152 44708.215
1050.0 54928.74 54830.8
1100.0 66772.92 66674.99
1150.0 80464.78 80366.85
1200.0 96145.58 96047.65
1250.0 113976.08 113878.15
1300.0 134278.25 134180.31
1350.0 157195.58 157097.64
1400.0 182893.89 182795.95
1450.0 211834.77 211736.83
1500.0 243926.97 243829.05
1550.0 279462.94 279365.0
1600.0 318741.25 318643.3
1650.0 361844.4 361746.47
1700.0 408704.88 408606.94
1750.0 460914.03 460816.1
1800.0 517586.28 517488.34
1850.0 578774.06 578676.2
1900.0 644472.6 644374.75
1950.0 717753.6 717655.75
2000.0 796546.5 796448.6
2050.0 879997.44 879899.56
2100.0 971275.44 971177.56
2150.0 1069077.9 1068979.9
2200.0 1172460.1 1172362.1
2250.0 1286118.0 1286020.0
2300.0 1404274.9 1404176.9
2350.0 1533205.4 1533107.4
2400.0 1670411.1 1670313.1
2450.0 1815334.8 1815236.8
2500.0 1971032.1 1970934.1
2550.0 2131051.8 2130953.8
2600.0 2308091.2 2307993.2
2650.0 2488315.2 2488217.2
2700.0 2687722.2 2687624.2
2750.0 2889253.0 2889155.0
2800.0 3113542.5 3113444.5
2850.0 3340797.0 3340699.0
2900.0 3587677.0 3587579.0
2950.0 3839692.5 3839594.5
3000.0 4109150.0 4109052.0
