# T(K) F_LW(W m-2) F_atm(W m-2)
200.0 67.74703 -544.7138
250.0 179.56508 -432.82666
300.0 386.60345 -225.76208
350.0 722.57855 110.22479
400.0 1222.4264 610.0887
450.0 1925.3813 1313.0676
500.0 2873.7786 2261.4922
550.0 4130.145 3517.8845
600.0 5752.9175 5140.6816
650.0 7848.162 7235.9478
700.0 10489.726 9877.53
750.0 13779.529 13167.353
800.0 17885.055 17272.895
850.0 22913.2 22301.053
900.0 28909.396 28297.266
950.0 36222.453 35610.336
1000.0 44806.152 44194.047
1050.0 54928.74 54316.645
1100.0 66772.92 66160.836
1150.0 80464.78 79852.7
1200.0 96145.58 95533.51
1250.0 113976.08 113364.016
1300.0 134278.25 133666.2
1350.0 157195.58 156583.55
1400.0 182893.89 182281.86
1450.0 211834.77 211222.73
1500.0 243926.97 243314.95
1550.0 279462.94 278850.9
1600.0 318741.25 318129.22
1650.0 361844.4 361232.38
1700.0 408704.88 408092.88
1750.0 460914.03 460302.03
1800.0 517586.28 516974.28
1850.0 578774.06 578162.1
1900.0 644472.6 643860.7
1950.0 717753.6 717141.7
2000.0 796546.5 795934.56
2050.0 879997.44 879385.5
2100.0 971275.44 970663.5
2150.0 1069077.9 1068465.9
2200.0 1172460.1 1171848.1
2250.0 1286118.0 1285506.0
2300.0 1404274.9 1403662.9
2350.0 1533205.4 1532593.4
2400.0 1670411.1 1669799.1
2450.0 1815334.8 1814722.8
2500.0 1971032.1 1970420.1
2550.0 2131051.8 2130439.8
2600.0 2308091.2 2307479.2
2650.0 2488315.2 2487703.2
2700.0 2687722.2 2687110.2
2750.0 2889253.0 2888641.0
2800.0 3113542.5 3112930.5
2850.0 3340797.0 3340185.0
2900.0 3587677.0 3587065.0
2950.0 3839692.5 3839080.5
3000.0 4109150.0 4108538.0
