# T(K) F_LW(W m-2) F_atm(W m-2)
200.0 45.222404 -568.45874
250.0 133.18695 -480.48206
300.0 311.20447 -302.46036
350.0 605.36566 -8.3012085
400.0 1038.6521 424.98346
450.0 1632.8455 1019.1779
500.0 2408.48 1794.8159
550.0 3399.0989 2785.4392
600.0 4636.31 4022.6555
650.0 6187.3022 5573.653
700.0 8099.356 7485.712
750.0 10444.716 9831.076
800.0 13345.406 12731.772
850.0 16888.756 16275.127
900.0 21125.441 20511.818
950.0 26322.727 25709.11
1000.0 32484.555 31870.941
1050.0 39826.055 39212.45
1100.0 48544.707 47931.105
1150.0 58763.3 58149.703
1200.0 70635.26 70021.664
1250.0 84352.33 83738.734
1300.0 100209.11 99595.52
1350.0 118375.38 117761.805
1400.0 139042.48 138428.92
1450.0 162635.16 162021.6
1500.0 189179.88 188566.31
1550.0 218923.33 218309.77
1600.0 252187.08 251573.53
1650.0 289110.72 288497.16
1700.0 329662.44 329048.88
1750.0 375346.44 374732.88
1800.0 425435.56 424822.0
1850.0 479949.34 479335.78
1900.0 538882.44 538268.94
1950.0 605209.44 604595.94
2000.0 676937.44 676323.94
2050.0 753311.3 752697.8
2100.0 837612.44 836998.94
2150.0 928341.2 927727.7
2200.0 1024619.5 1024006.0
2250.0 1131143.5 1130530.0
2300.0 1242230.0 1241616.5
2350.0 1363915.8 1363302.2
2400.0 1493908.5 1493295.0
2450.0 1631697.8 1631084.2
2500.0 1780422.6 1779809.1
2550.0 1933689.9 1933076.4
2600.0 2103723.0 2103109.5
2650.0 2277085.8 2276472.2
2700.0 2469526.2 2468912.8
2750.0 2664283.8 2663670.2
2800.0 2881445.2 2880831.8
2850.0 3101727.0 3101113.5
2900.0 3341910.5 3341297.0
2950.0 3587482.0 3586868.5
3000.0 3850458.5 3849845.0
