# T(K) F_LW(W m-2) F_atm(W m-2)
200.0 45.222404 -52.966568
250.0 133.18695 34.999924
300.0 311.20447 213.0181
350.0 605.36566 507.17896
400.0 1038.6521 940.4651
450.0 1632.8455 1534.6587
500.0 2408.48 2310.2937
550.0 3399.0989 3300.9133
600.0 4636.31 4538.1255
650.0 6187.3022 6089.118
700.0 8099.356 8001.173
750.0 10444.716 10346.533
800.0 13345.406 13247.225
850.0 16888.756 16790.576
900.0 21125.441 21027.262
950.0 26322.727 26224.549
1000.0 32484.555 32386.377
1050.0 39826.055 39727.875
1100.0 48544.707 48446.527
1150.0 58763.3 58665.125
1200.0 70635.26 70537.086
1250.0 84352.33 84254.16
1300.0 100209.11 100110.94
1350.0 118375.38 118277.21
1400.0 139042.48 138944.31
1450.0 162635.16 162536.98
1500.0 189179.88 189081.7
1550.0 218923.33 218825.16
1600.0 252187.08 252088.9
1650.0 289110.72 289012.53
1700.0 329662.44 329564.25
1750.0 375346.44 375248.25
1800.0 425435.56 425337.38
1850.0 479949.34 479851.2
1900.0 538882.44 538784.3
1950.0 605209.44 605111.3
2000.0 676937.44 676839.3
2050.0 753311.3 753213.2
2100.0 837612.44 837514.3
2150.0 928341.2 928243.06
2200.0 1024619.5 1024521.4
2250.0 1131143.5 1131045.2
2300.0 1242230.0 1242131.8
2350.0 1363915.8 1363817.5
2400.0 1493908.5 1493810.2
2450.0 1631697.8 1631599.5
2500.0 1780422.6 1780324.4
2550.0 1933689.9 1933591.6
2600.0 2103723.0 2103624.8
2650.0 2277085.8 2276987.5
2700.0 2469526.2 2469428.0
2750.0 2664283.8 2664185.5
2800.0 2881445.2 2881347.0
2850.0 3101727.0 3101628.8
2900.0 3341910.5 3341812.2
2950.0 3587482.0 3587383.8
3000.0 3850458.5 3850360.2
