# T(K) F_LW(W m-2) F_atm(W m-2)
200.0 79.43446 -23.616074
250.0 187.44551 84.5706
300.0 370.51135 267.7203
350.0 652.0608 549.30096
400.0 1064.4443 961.7123
450.0 1655.7255 1553.0132
500.0 2486.4543 2383.7676
550.0 3640.1433 3537.498
600.0 5196.6577 5094.0625
650.0 7277.934 7175.388
700.0 9967.662 9865.162
750.0 13371.576 13269.117
800.0 17656.719 17554.297
850.0 22924.332 22821.945
900.0 29207.47 29105.115
950.0 36843.348 36741.02
1000.0 45768.02 45665.723
1050.0 56223.926 56121.652
1100.0 68378.2 68275.945
1150.0 82333.32 82231.08
1200.0 98194.74 98092.516
1250.0 116092.64 115990.42
1300.0 136320.55 136218.34
1350.0 158983.55 158881.36
1400.0 184206.25 184104.08
1450.0 212407.97 212305.83
1500.0 243435.19 243333.06
1550.0 277562.62 277460.53
1600.0 315033.62 314931.53
1650.0 355890.22 355788.16
1700.0 400059.94 399957.9
1750.0 448840.4 448738.4
1800.0 501431.5 501329.5
1850.0 557937.75 557835.8
1900.0 618398.75 618296.8
1950.0 685123.2 685021.25
2000.0 756574.2 756472.3
2050.0 832070.1 831968.25
2100.0 913663.1 913561.25
2150.0 1000803.7 1000701.9
2200.0 1092825.1 1092723.2
2250.0 1198625.4 1198523.5
2300.0 1308809.1 1308707.2
2350.0 1427141.9 1427040.0
2400.0 1561827.1 1561725.4
2450.0 1704230.9 1704129.1
2500.0 1846349.0 1846247.2
2550.0 2013693.9 2013592.2
2600.0 2178182.2 2178080.5
2650.0 2347120.5 2347019.0
2700.0 2534053.2 2533951.8
2750.0 2721657.5 2721556.0
2800.0 2900017.5 2899916.0
2850.0 3108174.0 3108072.5
2900.0 3331424.0 3331322.5
2950.0 3559593.8 3559492.0
3000.0 3800735.2 3800633.5
