# T(K) F_LW(W m-2) F_atm(W m-2)
200.0 76.81919 -28.665688
250.0 177.15643 71.66426
300.0 337.98248 232.43701
350.0 571.776 466.15216
400.0 901.2406 795.5582
450.0 1365.1598 1259.4305
500.0 2014.8737 1909.1206
550.0 2923.7908 2818.0305
600.0 4165.8877 4060.125
650.0 5855.321 5749.556
700.0 8075.281 7969.514
750.0 10930.117 10824.348
800.0 14583.481 14477.711
850.0 19139.715 19033.941
900.0 24636.318 24530.543
950.0 31401.342 31295.564
1000.0 39376.54 39270.758
1050.0 48789.504 48683.72
1100.0 59806.535 59700.75
1150.0 72504.75 72398.96
1200.0 86973.56 86867.77
1250.0 103322.97 103217.17
1300.0 121799.33 121693.53
1350.0 142466.94 142361.12
1400.0 165403.88 165298.06
1450.0 190958.17 190852.36
1500.0 218939.4 218833.6
1550.0 249531.08 249425.27
1600.0 282905.7 282799.88
1650.0 319040.6 318934.78
1700.0 357802.06 357696.25
1750.0 400201.16 400095.34
1800.0 445442.16 445336.34
1850.0 493582.56 493476.75
1900.0 544619.2 544513.4
1950.0 600206.7 600100.9
2000.0 659081.2 658975.4
2050.0 720666.94 720561.1
2100.0 786166.06 786060.25
2150.0 855294.75 855188.94
2200.0 927564.44 927458.6
2250.0 1004582.5 1004476.7
2300.0 1083856.5 1083750.6
2350.0 1168507.4 1168401.5
2400.0 1257027.9 1256922.0
2450.0 1349212.0 1349106.1
2500.0 1445460.6 1445354.8
2550.0 1543436.4 1543330.5
2600.0 1648754.4 1648648.5
2650.0 1755585.6 1755479.8
2700.0 1869849.2 1869743.4
2750.0 1985230.8 1985124.9
2800.0 2109767.0 2109661.2
2850.0 2235644.8 2235539.0
2900.0 2367803.5 2367697.8
2950.0 2501436.2 2501330.5
3000.0 2640974.5 2640868.8
